Frequency (Hz)	Level (dB)
1.345825	-79.436798
2.691650	-77.684914
4.037476	-75.590828
5.383301	-73.476814
6.729126	-71.436066
8.074951	-69.483871
9.420776	-67.616615
10.766602	-65.829247
12.112427	-64.119049
13.458252	-62.485832
14.804077	-60.931099
16.149902	-59.457157
17.495728	-58.066231
18.841553	-56.759777
20.187378	-55.537792
21.533203	-54.398327
22.879028	-53.337212
24.224854	-52.348160
25.570679	-51.423321
26.916504	-50.554333
28.262329	-49.733608
29.608154	-48.955395
30.953979	-48.216091
32.299805	-47.513668
33.645630	-46.846523
34.991455	-46.212505
36.337280	-45.608822
37.683105	-45.032681
39.028931	-44.482071
40.374756	-43.955837
41.720581	-43.453022
43.066406	-42.972298
44.412231	-42.512104
45.758057	-42.071232
47.103882	-41.648956
48.449707	-41.244595
49.795532	-40.857193
51.141357	-40.485851
52.487183	-40.129986
53.833008	-39.789104
55.178833	-39.462559
56.524658	-39.149727
57.870483	-38.850208
59.216309	-38.563591
60.562134	-38.289387
61.907959	-38.027210
63.253784	-37.776752
64.599609	-37.537651
65.945435	-37.309586
67.291260	-37.092300
68.637085	-36.885513
69.982910	-36.688976
71.328735	-36.502464
72.674561	-36.325756
74.020386	-36.158676
75.366211	-36.001011
76.712036	-35.852615
78.057861	-35.713326
79.403687	-35.582977
80.749512	-35.461483
82.095337	-35.348671
83.441162	-35.244453
84.786987	-35.148735
86.132812	-35.061386
87.478638	-34.982388
88.824463	-34.911579
90.170288	-34.848980
91.516113	-34.794456
92.861938	-34.748020
94.207764	-34.709583
95.553589	-34.679127
96.899414	-34.656624
98.245239	-34.642029
99.591064	-34.635365
100.936890	-34.636559
102.282715	-34.645664
103.628540	-34.662605
104.974365	-34.687416
106.320190	-34.720043
107.666016	-34.760441
109.011841	-34.808594
110.357666	-34.864315
111.703491	-34.927616
113.049316	-34.998127
114.395142	-35.075855
115.740967	-35.160309
117.086792	-35.251381
118.432617	-35.348682
119.778442	-35.451839
121.124268	-35.560730
122.470093	-35.674675
123.815918	-35.793476
125.161743	-35.916401
126.507568	-36.042526
127.853394	-36.171288
129.199219	-36.301437
130.545044	-36.432186
131.890869	-36.562931
133.236694	-36.692230
134.582520	-36.818951
135.928345	-36.941776
137.274170	-37.058727
138.619995	-37.168671
139.965820	-37.270836
141.311646	-37.363407
142.657471	-37.444569
144.003296	-37.513317
145.349121	-37.568645
146.694946	-37.609535
148.040771	-37.635353
149.386597	-37.645576
150.732422	-37.639839
152.078247	-37.618389
153.424072	-37.581730
154.769897	-37.530392
156.115723	-37.465309
157.461548	-37.387585
158.807373	-37.298119
160.153198	-37.198433
161.499023	-37.090569
162.844849	-36.975555
164.190674	-36.854187
165.536499	-36.728386
166.882324	-36.599747
168.228149	-36.469238
169.573975	-36.338383
170.919800	-36.208050
172.265625	-36.078732
173.611450	-35.951790
174.957275	-35.827915
176.303101	-35.707802
177.648926	-35.592491
178.994751	-35.482101
180.340576	-35.377270
181.686401	-35.278336
183.032227	-35.185394
184.378052	-35.099106
185.723877	-35.019394
187.069702	-34.946838
188.415527	-34.881481
189.761353	-34.823570
191.107178	-34.773308
192.453003	-34.730644
193.798828	-34.695873
195.144653	-34.668766
196.490479	-34.649651
197.836304	-34.638222
199.182129	-34.634815
200.527954	-34.639099
201.873779	-34.651409
203.219604	-34.671402
204.565430	-34.699390
205.911255	-34.735031
207.257080	-34.778564
208.602905	-34.829678
209.948730	-34.888435
211.294556	-34.954613
212.640381	-35.027973
213.986206	-35.108448
215.332031	-35.195477
216.677856	-35.289127
218.023682	-35.388721
219.369507	-35.494202
220.715332	-35.605171
222.061157	-35.721024
223.406982	-35.841621
224.752808	-35.965866
226.098633	-36.093121
227.444458	-36.222618
228.790283	-36.353027
230.136108	-36.483902
231.481934	-36.614273
232.827759	-36.742641
234.173584	-36.868034
235.519409	-36.988781
236.865234	-37.103024
238.211060	-37.210037
239.556885	-37.308681
240.902710	-37.396896
242.248535	-37.473244
243.594360	-37.536842
244.940186	-37.586582
246.286011	-37.621555
247.631836	-37.641266
248.977661	-37.645222
250.323486	-37.633232
251.669312	-37.605694
253.015137	-37.563145
254.360962	-37.506264
255.706787	-37.436081
257.052612	-37.353577
258.398438	-37.259834
259.744263	-37.156727
261.090088	-37.045956
262.435913	-36.928272
263.781738	-36.804924
265.127563	-36.677853
266.473389	-36.548325
267.819214	-36.417530
269.165039	-36.286819
270.510864	-36.156769
271.856689	-36.028259
273.202515	-35.902454
274.548340	-35.779949
275.894165	-35.661671
277.239990	-35.548264
278.585815	-35.440002
279.931641	-35.337482
281.277466	-35.240864
282.623291	-35.150520
283.969116	-35.066799
285.314941	-34.989872
286.660767	-34.920147
288.006592	-34.857697
289.352417	-34.802807
290.698242	-34.755524
292.044067	-34.715981
293.389893	-34.684227
294.735718	-34.660278
296.081543	-34.644192
297.427368	-34.635937
298.773193	-34.635567
300.119019	-34.643024
301.464844	-34.658367
302.810669	-34.681526
304.156494	-34.712536
305.502319	-34.751301
306.848145	-34.797848
308.193970	-34.851986
309.539795	-34.913708
310.885620	-34.982731
312.231445	-35.058949
313.577271	-35.142036
314.923096	-35.231720
316.268921	-35.327763
317.614746	-35.429703
318.960571	-35.537418
320.306396	-35.650356
321.652222	-35.768154
322.998047	-35.890305
324.343872	-36.015812
325.689697	-36.144089
327.035522	-36.274052
328.381348	-36.404713
329.727173	-36.535545
331.072998	-36.665272
332.418823	-36.792618
333.764648	-36.916409
335.110474	-37.034733
336.456299	-37.146202
337.802124	-37.250111
339.147949	-37.344872
340.493774	-37.428539
341.839600	-37.499954
343.185425	-37.558193
344.531250	-37.602188
345.877075	-37.631214
347.222900	-37.644741
348.568726	-37.642357
349.914551	-37.624176
351.260376	-37.590672
352.606201	-37.542339
353.952026	-37.480049
355.297852	-37.404919
356.643677	-37.317814
357.989502	-37.220093
359.335327	-37.113834
360.681152	-37.000267
362.026978	-36.880096
363.372803	-36.755077
364.718628	-36.626949
366.064453	-36.496708
367.410278	-36.365833
368.756104	-36.235355
370.101929	-36.105721
371.447754	-35.978207
372.793579	-35.853638
374.139404	-35.732639
375.485229	-35.616306
376.831055	-35.504833
378.176880	-35.398796
379.522705	-35.298622
380.868530	-35.204365
382.214355	-35.116684
383.560181	-35.035549
384.906006	-34.961479
386.251831	-34.894592
387.597656	-34.835094
388.943481	-34.783234
390.289307	-34.738949
391.635132	-34.702538
392.980957	-34.673794
394.326782	-34.653023
395.672607	-34.639954
397.018433	-34.634892
398.364258	-34.637535
399.710083	-34.648186
401.055908	-34.666542
402.401733	-34.692875
403.747559	-34.726891
405.093384	-34.768791
406.439209	-34.818310
407.785034	-34.875477
409.130859	-34.940117
410.476685	-35.011971
411.822510	-35.091003
413.168335	-35.176651
414.514160	-35.268959
415.859985	-35.367321
417.205811	-35.471584
418.551636	-35.581459
419.897461	-35.696293
421.243286	-35.815968
422.589111	-35.939510
423.934937	-36.066181
425.280762	-36.195324
426.626587	-36.325592
427.972412	-36.456425
429.318237	-36.587025
430.664062	-36.715893
432.009888	-36.842033
433.355713	-36.963928
434.701538	-37.079613
436.047363	-37.188210
437.393188	-37.288769
438.739014	-37.379318
440.084839	-37.458244
441.430664	-37.524612
442.776489	-37.577335
444.122314	-37.615456
445.468140	-37.638428
446.813965	-37.645729
448.159790	-37.637051
449.505615	-37.612724
450.851440	-37.573303
452.197266	-37.519356
453.543091	-37.451859
454.888916	-37.371872
456.234741	-37.280369
457.580566	-37.179043
458.926392	-37.069801
460.272217	-36.953526
461.618042	-36.831184
462.963867	-36.704754
464.309692	-36.575684
465.655518	-36.445015
467.001343	-36.314209
468.347168	-36.184002
469.692993	-36.055035
471.038818	-35.928608
472.384644	-35.805367
473.730469	-35.686089
475.076294	-35.571674
476.422119	-35.462265
477.767944	-35.358513
479.113770	-35.260662
480.459595	-35.168922
481.805420	-35.083839
483.151245	-35.005421
484.497070	-34.934193
485.842896	-34.870193
487.188721	-34.813690
488.534546	-34.764832
489.880371	-34.723618
491.226196	-34.690269
492.572021	-34.664631
493.917847	-34.646946
495.263672	-34.636993
496.609497	-34.635017
497.955322	-34.640781
499.301147	-34.654522
500.646973	-34.675987
501.992798	-34.705402
503.338623	-34.742500
504.684448	-34.787453
506.030273	-34.839981
507.376099	-34.900135
508.721924	-34.967648
510.067749	-35.042347
511.413574	-35.124062
512.759399	-35.212330
514.105225	-35.307117
515.451050	-35.407810
516.796875	-35.514343
518.142700	-35.626251
519.488525	-35.743015
520.834351	-35.864365
522.180176	-35.989212
523.526001	-36.116959
524.871826	-36.246704
526.217651	-36.377235
527.563477	-36.508110
528.909302	-36.638214
530.255127	-36.766121
531.600952	-36.890797
532.946777	-37.010441
534.292603	-37.123398
535.638428	-37.228981
536.984253	-37.325851
538.330078	-37.411961
539.675903	-37.486008
541.021729	-37.547119
542.367554	-37.594189
543.713379	-37.626385
545.059204	-37.643200
546.405029	-37.644188
547.750854	-37.629292
549.096680	-37.598946
550.442505	-37.553669
551.788330	-37.494232
553.134155	-37.421719
554.479980	-37.337032
555.825806	-37.241383
557.171631	-37.136772
558.517456	-37.024681
559.863281	-36.905800
561.209106	-36.781635
562.554932	-36.654049
563.900757	-36.524158
565.246582	-36.393303
566.592407	-36.262691
567.938232	-36.132812
569.284058	-36.004753
570.629883	-35.879517
571.975708	-35.757694
573.321533	-35.640320
574.667358	-35.527809
576.013184	-35.420582
577.359009	-35.319160
578.704834	-35.223633
580.050659	-35.134541
581.396484	-35.052021
582.742310	-34.976429
584.088135	-34.908031
585.433960	-34.846958
586.779785	-34.793491
588.125610	-34.747604
589.471436	-34.709534
590.817261	-34.679180
592.163086	-34.656731
593.508911	-34.642052
594.854736	-34.635296
596.200562	-34.636333
597.546387	-34.645294
598.892212	-34.662041
600.238037	-34.686691
601.583862	-34.719109
602.929688	-34.759350
604.275513	-34.807285
605.621338	-34.862846
606.967163	-34.925941
608.312988	-34.996292
609.658813	-35.073837
611.004639	-35.158127
612.350464	-35.249050
613.696289	-35.346184
615.042114	-35.449215
616.387939	-35.557957
617.733765	-35.671783
619.079590	-35.790482
620.425415	-35.913296
621.771240	-36.039360
623.117065	-36.168068
624.462891	-36.298187
625.808716	-36.428944
627.154541	-36.559692
628.500366	-36.689037
629.846191	-36.815849
631.192017	-36.938789
632.537842	-37.055893
633.883667	-37.166035
635.229492	-37.268410
636.575317	-37.361233
637.921143	-37.442699
639.266968	-37.511772
640.612793	-37.567440
641.958618	-37.608692
643.304443	-37.634903
644.650269	-37.645519
645.996094	-37.640171
647.341919	-37.619102
648.687744	-37.582825
650.033569	-37.531841
651.379395	-37.467083
652.725220	-37.389664
654.071045	-37.300472
655.416870	-37.201019
656.762695	-37.093342
658.108521	-36.978497
659.454346	-36.857262
660.800171	-36.731548
662.145996	-36.602970
663.491821	-36.472492
664.837646	-36.341633
666.183472	-36.211281
667.529297	-36.081921
668.875122	-35.954906
670.220947	-35.830952
671.566772	-35.710732
672.912598	-35.595303
674.258423	-35.484779
675.604248	-35.379803
676.950073	-35.280724
678.295898	-35.187622
679.641724	-35.101170
680.987549	-35.021290
682.333374	-34.948555
683.679199	-34.883015
685.025024	-34.824917
686.370850	-34.774467
687.716675	-34.731606
689.062500	-34.696644
690.408325	-34.669342
691.754150	-34.650032
693.099976	-34.638409
694.445801	-34.634804
695.791626	-34.638897
697.137451	-34.651009
698.483276	-34.670807
699.829102	-34.698601
701.174927	-34.734047
702.520752	-34.777390
703.866577	-34.828312
705.212402	-34.886887
706.558228	-34.952881
707.904053	-35.026062
709.249878	-35.106369
710.595703	-35.193233
711.941528	-35.286728
713.287354	-35.386177
714.633179	-35.491512
715.979004	-35.602356
717.324829	-35.718086
718.670654	-35.838577
720.016479	-35.962742
721.362305	-36.089928
722.708130	-36.219383
724.053955	-36.349781
725.399780	-36.480648
726.745605	-36.611053
728.091431	-36.739483
729.437256	-36.864967
730.783081	-36.985851
732.128906	-37.100269
733.474731	-37.207470
734.820557	-37.306351
736.166382	-37.394844
737.512207	-37.471497
738.858032	-37.535427
740.203857	-37.585526
741.549683	-37.620869
742.895508	-37.640968
744.241333	-37.645321
745.587158	-37.633720
746.932983	-37.606560
748.278809	-37.564381
749.624634	-37.507843
750.970459	-37.437981
752.316284	-37.355766
753.662109	-37.262283
755.007935	-37.159386
756.353760	-37.048798
757.699585	-36.931274
759.045410	-36.808041
760.391235	-36.681042
761.737061	-36.551567
763.082886	-36.420784
764.428711	-36.290058
765.774536	-36.159988
767.120361	-36.031422
768.466187	-35.905540
769.812012	-35.782948
771.157837	-35.664547
772.503662	-35.551022
773.849487	-35.442623
775.195312	-35.339958
776.541138	-35.243191
777.886963	-35.152683
779.232788	-35.068798
780.578613	-34.991699
781.924438	-34.921795
783.270264	-34.859161
784.616089	-34.804077
785.961914	-34.756611
787.307739	-34.716866
788.653564	-34.684925
789.999390	-34.660774
791.345215	-34.644501
792.691040	-34.636044
794.036865	-34.635483
795.382690	-34.642742
796.728516	-34.657894
798.074341	-34.680851
799.420166	-34.711678
800.765991	-34.750240
802.111816	-34.796600
803.457642	-34.850548
804.803467	-34.912083
806.149292	-34.980930
807.495117	-35.056969
808.840942	-35.139896
810.186768	-35.229412
811.532593	-35.325306
812.878418	-35.427097
814.224243	-35.534676
815.570068	-35.647491
816.915894	-35.765171
818.261719	-35.887226
819.607544	-36.012657
820.953369	-36.140873
822.299194	-36.270813
823.645020	-36.401459
824.990845	-36.532299
826.336670	-36.662075
827.682495	-36.789494
829.028320	-36.913387
830.374146	-37.031872
831.719971	-37.143520
833.065796	-37.247631
834.411621	-37.342644
835.757446	-37.426605
837.103271	-37.498333
838.449097	-37.556915
839.794922	-37.601276
841.140747	-37.630680
842.486572	-37.644596
843.832397	-37.642609
845.178223	-37.624817
846.524048	-37.591686
847.869873	-37.543713
849.215698	-37.481758
850.561523	-37.406933
851.907349	-37.320110
853.253174	-37.222633
854.598999	-37.116566
855.944824	-37.003174
857.290649	-36.883148
858.636475	-36.758224
859.982300	-36.630161
861.328125	-36.499962
862.673950	-36.369083
864.019775	-36.238590
865.365601	-36.108921
866.711426	-35.981342
868.057251	-35.856693
869.403076	-35.735596
870.748901	-35.619137
872.094727	-35.507542
873.440552	-35.401360
874.786377	-35.301037
876.132202	-35.206631
877.478027	-35.118782
878.823853	-35.037483
880.169678	-34.963234
881.515503	-34.896168
882.861328	-34.836483
884.207153	-34.784431
885.552979	-34.739952
886.898804	-34.703350
888.244629	-34.674412
889.590454	-34.653446
890.936279	-34.640182
892.282104	-34.634922
893.627930	-34.637375
894.973755	-34.647827
896.319580	-34.665989
897.665405	-34.692127
899.011230	-34.725952
900.357056	-34.767654
901.702881	-34.816986
903.048706	-34.873966
904.394531	-34.938423
905.740356	-35.010098
907.086182	-35.088955
908.432007	-35.174442
909.777832	-35.266590
911.123657	-35.364803
912.469482	-35.468925
913.815308	-35.578663
915.161133	-35.693378
916.506958	-35.812943
917.852783	-35.936401
919.198608	-36.063004
920.544434	-36.192097
921.890259	-36.322346
923.236084	-36.453175
924.581909	-36.583794
925.927734	-36.712723
927.273560	-36.838943
928.619385	-36.960968
929.965210	-37.076824
931.311035	-37.185604
932.656860	-37.286385
934.002686	-37.377205
935.348511	-37.456436
936.694336	-37.523125
938.040161	-37.576199
939.385986	-37.614689
940.731812	-37.638046
942.077637	-37.645741
943.423462	-37.637455
944.769287	-37.613514
946.115112	-37.574467
947.460938	-37.520863
948.806763	-37.453690
950.152588	-37.374004
951.498413	-37.282772
952.844238	-37.181664
954.190063	-37.072605
955.535889	-36.956493
956.881714	-36.834282
958.227539	-36.707932
959.573364	-36.578918
960.919189	-36.448269
962.265015	-36.317451
963.610840	-36.187229
964.956665	-36.058208
966.302490	-35.931713
967.648315	-35.808384
968.994141	-35.688992
970.339966	-35.574459
971.685791	-35.464916
973.031616	-35.361019
974.377441	-35.263023
975.723267	-35.171120
977.069092	-35.085876
978.414917	-35.007282
979.760742	-34.935875
981.106567	-34.871693
982.452393	-34.815002
983.798218	-34.765953
985.144043	-34.724545
986.489868	-34.691006
987.835693	-34.665169
989.181519	-34.647293
990.527344	-34.637142
991.873169	-34.634975
993.218994	-34.640541
994.564819	-34.654091
995.910645	-34.675358
997.256470	-34.704582
998.602295	-34.741482
999.948120	-34.786243
1001.293945	-34.838581
1002.639771	-34.898548
1003.985596	-34.965885
1005.331421	-35.040405
1006.677246	-35.121952
1008.023071	-35.210052
1009.368896	-35.304691
1010.714722	-35.405235
1012.060547	-35.511627
1013.406372	-35.623413
1014.752197	-35.740055
1016.098022	-35.861305
1017.443848	-35.986073
1018.789673	-36.113754
1020.135498	-36.243465
1021.481323	-36.373985
1022.827148	-36.504860
1024.172974	-36.635006
1025.518799	-36.762974
1026.864624	-36.887749
1028.210449	-37.007545
1029.556274	-37.120678
1030.902100	-37.226452
1032.247925	-37.323566
1033.593750	-37.409962
1034.939575	-37.484318
1036.285400	-37.545765
1037.631226	-37.593197
1038.977051	-37.625767
1040.322876	-37.642971
1041.668701	-37.644356
1043.014526	-37.629852
1044.360352	-37.599884
1045.706177	-37.554970
1047.052002	-37.495872
1048.397827	-37.423672
1049.743652	-37.339275
1051.089478	-37.243881
1052.435303	-37.139469
1053.781128	-37.027554
1055.126953	-36.908829
1056.472778	-36.784767
1057.818604	-36.657249
1059.164429	-36.527405
1060.510254	-36.396553
1061.856079	-36.265930
1063.201904	-36.136024
1064.547729	-36.007904
1065.893555	-35.882587
1067.239380	-35.760670
1068.585205	-35.643177
1069.931030	-35.530544
1071.276855	-35.423176
1072.622681	-35.321609
1073.968506	-35.225933
1075.314331	-35.136673
1076.660156	-35.053989
1078.005981	-34.978222
1079.351807	-34.909645
1080.697632	-34.848385
1082.043457	-34.794727
1083.389282	-34.748653
1084.735107	-34.710384
1086.080933	-34.679844
1087.426758	-34.657192
1088.772583	-34.642323
1090.118408	-34.635368
1091.464233	-34.636215
1092.810059	-34.644974
1094.155884	-34.661533
1095.501709	-34.685986
1096.847534	-34.718212
1098.193359	-34.758255
1099.539185	-34.806004
1100.885010	-34.861374
1102.230835	-34.924286
1103.576660	-34.994457
1104.922485	-35.071827
1106.268311	-35.155952
1107.614136	-35.246712
1108.959961	-35.343697
1110.305786	-35.446583
1111.651611	-35.555187
1112.997437	-35.668892
1114.343262	-35.787476
1115.689087	-35.910202
1117.034912	-36.036194
1118.380737	-36.164848
1119.726562	-36.294945
1121.072388	-36.425690
1122.418213	-36.556454
1123.764038	-36.685852
1125.109863	-36.812737
1126.455688	-36.935795
1127.801514	-37.053066
1129.147339	-37.163387
1130.493164	-37.265972
1131.838989	-37.359058
1133.184814	-37.440823
1134.530640	-37.510212
1135.876465	-37.566227
1137.222290	-37.607849
1138.568115	-37.634438
1139.913940	-37.645447
1141.259766	-37.640495
1142.605591	-37.619816
1143.951416	-37.583908
1145.297241	-37.533276
1146.643066	-37.468849
1147.988892	-37.391735
1149.334717	-37.302822
1150.680542	-37.203594
1152.026367	-37.096107
1153.372192	-36.981434
1154.718018	-36.860336
1156.063843	-36.734715
1157.409668	-36.606194
1158.755493	-36.475746
1160.101318	-36.344883
1161.447144	-36.214512
1162.792969	-36.085114
1164.138794	-35.958027
1165.484619	-35.833988
1166.830444	-35.713661
1168.176270	-35.598110
1169.522095	-35.487461
1170.867920	-35.382339
1172.213745	-35.283115
1173.559570	-35.189857
1174.905396	-35.103241
1176.251221	-35.023190
1177.597046	-34.950275
1178.942871	-34.884556
1180.288696	-34.826267
1181.634521	-34.775627
1182.980347	-34.732578
1184.326172	-34.697422
1185.671997	-34.669922
1187.017822	-34.650417
1188.363647	-34.638599
1189.709473	-34.634800
1191.055298	-34.638699
1192.401123	-34.650616
1193.746948	-34.670219
1195.092773	-34.697819
1196.438599	-34.733070
1197.784424	-34.776222
1199.130249	-34.826954
1200.476074	-34.885338
1201.821899	-34.951153
1203.167725	-35.024155
1204.513550	-35.104294
1205.859375	-35.190994
1207.205200	-35.284328
1208.551025	-35.383633
1209.896851	-35.488827
1211.242676	-35.599537
1212.588501	-35.715153
1213.934326	-35.835533
1215.280151	-35.959614
1216.625977	-36.086731
